# Enu [GeV] / effarea NuE [m^2] / effarea NuMu [m^2] / effarea NuTau [m^2]
1.082957200589916056e+02 0.000000000000000000e+00 0.000000000000000000e+00 0.000000000000000000e+00
1.262635396029178878e+02 0.000000000000000000e+00 0.000000000000000000e+00 0.000000000000000000e+00
1.472124791669820070e+02 0.000000000000000000e+00 0.000000000000000000e+00 0.000000000000000000e+00
1.716371494941702451e+02 0.000000000000000000e+00 0.000000000000000000e+00 0.000000000000000000e+00
2.001142243727087475e+02 0.000000000000000000e+00 0.000000000000000000e+00 0.000000000000000000e+00
2.333160560770731990e+02 0.000000000000000000e+00 0.000000000000000000e+00 0.000000000000000000e+00
2.720265498067408316e+02 0.000000000000000000e+00 0.000000000000000000e+00 0.000000000000000000e+00
3.171596719229419250e+02 0.000000000000000000e+00 0.000000000000000000e+00 0.000000000000000000e+00
3.697810289684287000e+02 1.473436213927925564e-06 0.000000000000000000e+00 0.000000000000000000e+00
4.311330269573875285e+02 1.561483986733946949e-05 2.153417199224350043e-06 0.000000000000000000e+00
5.026642049538707511e+02 4.497735790209844708e-05 0.000000000000000000e+00 5.971289738226914778e-06
5.860634355133283862e+02 1.133694313466548920e-04 4.656018518289783970e-06 1.487922054366208613e-05
6.832997994699171613e+02 2.519425179343670607e-04 0.000000000000000000e+00 7.562912651337683201e-05
7.966690765252678830e+02 5.861243698745965958e-04 9.848719491856172681e-05 1.700107241049408913e-04
9.288479492954472789e+02 1.318694325163960457e-03 1.195848526549525559e-04 2.943756117019802332e-04
1.082957200589915601e+03 2.639152808114886284e-03 3.897793067153543234e-04 8.366372785530984402e-04
1.262635396029178310e+03 4.747990518808364868e-03 3.312611661385744810e-04 1.666717929765582085e-03
1.472124791669819842e+03 8.122471161186695099e-03 7.966920966282486916e-04 3.128217998892068863e-03
1.716371494941702394e+03 1.332433614879846573e-02 1.049077720381319523e-03 5.633767228573560715e-03
2.001142243727086679e+03 2.171967737376689911e-02 2.076581586152315140e-03 9.671511128544807434e-03
2.333160560770731081e+03 3.335994854569435120e-02 3.713533515110611916e-03 1.457388419657945633e-02
2.720265498067408771e+03 5.514651909470558167e-02 5.626874044537544250e-03 2.313375473022460938e-02
3.171596719229419250e+03 8.072492480278015137e-02 9.180666878819465637e-03 3.524248674511909485e-02
3.697810289684287000e+03 1.108613535761833191e-01 9.314594790339469910e-03 5.960479006171226501e-02
4.311330269573877558e+03 1.698246896266937256e-01 2.208785153925418854e-02 8.873583376407623291e-02
5.026642049538710125e+03 2.353677600622177124e-01 3.157922253012657166e-02 1.176600530743598938e-01
5.860634355133283862e+03 3.159948289394378662e-01 4.548197612166404724e-02 1.699425578117370605e-01
6.832997994699171613e+03 4.267793297767639160e-01 5.936324223875999451e-02 2.500592768192291260e-01
7.966690765252680649e+03 5.437471866607666016e-01 7.670545578002929688e-02 3.362154960632324219e-01
9.288479492954473244e+03 6.955288648605346680e-01 1.033091172575950623e-01 4.539071917533874512e-01
1.082957200589915556e+04 8.510028719902038574e-01 1.532175838947296143e-01 6.013721823692321777e-01
1.262635396029177718e+04 1.047284960746765137e+00 1.796057671308517456e-01 7.403830885887145996e-01
1.472124791669819024e+04 1.253810882568359375e+00 2.448876649141311646e-01 9.530762434005737305e-01
1.716371494941702258e+04 1.478620409965515137e+00 3.040102422237396240e-01 1.101017713546752930e+00
2.001142243727088498e+04 1.715389370918273926e+00 3.634285628795623779e-01 1.352908730506896973e+00
2.333160560770734446e+04 1.995883703231811523e+00 4.547997415065765381e-01 1.581075072288513184e+00
2.720265498067409862e+04 2.276217937469482422e+00 5.398957133293151855e-01 1.809096813201904297e+00
3.171596719229418886e+04 2.548535108566284180e+00 6.833314895629882812e-01 2.190738201141357422e+00
3.697810289684284362e+04 2.940235137939453125e+00 8.422109484672546387e-01 2.424032449722290039e+00
4.311330269573870464e+04 3.270366430282592773e+00 9.681211709976196289e-01 2.774769783020019531e+00
5.026642049538705032e+04 3.746563434600830078e+00 1.191388249397277832e+00 3.132109880447387695e+00
5.860634355133283680e+04 4.408188343048095703e+00 1.252186417579650879e+00 3.613131046295166016e+00
6.832997994699174888e+04 5.014115333557128906e+00 1.453987002372741699e+00 4.041285991668701172e+00
7.966690765252683195e+04 5.625251770019531250e+00 1.730967998504638672e+00 4.654459476470947266e+00
9.288479492954473244e+04 6.153377532958984375e+00 1.957390308380126953e+00 5.292530059814453125e+00
1.082957200589915446e+05 6.897131919860839844e+00 2.064507007598876953e+00 5.626467704772949219e+00
1.262635396029177646e+05 7.680363178253173828e+00 2.354083061218261719e+00 6.366904735565185547e+00
1.472124791669819097e+05 8.540314674377441406e+00 2.617676258087158203e+00 7.357985973358154297e+00
1.716371494941702404e+05 9.543929100036621094e+00 3.103707790374755859e+00 7.700572490692138672e+00
2.001142243727088789e+05 1.024680805206298828e+01 3.295170545578002930e+00 8.481122016906738281e+00
2.333160560770734446e+05 1.142994499206542969e+01 3.606502056121826172e+00 9.270426750183105469e+00
2.720265498067409499e+05 1.221035671234130859e+01 4.224213123321533203e+00 1.004587745666503906e+01
3.171596719229419250e+05 1.370248413085937500e+01 4.256656169891357422e+00 1.118575954437255859e+01
3.697810289684284944e+05 1.492912769317626953e+01 5.146887779235839844e+00 1.153306579589843750e+01
4.311330269573871046e+05 1.675065994262695312e+01 5.210158348083496094e+00 1.252272510528564453e+01
5.026642049538705032e+05 1.822994995117187500e+01 6.157727718353271484e+00 1.404642105102539062e+01
5.860634355133282952e+05 1.952544212341308594e+01 6.326314449310302734e+00 1.444961071014404297e+01
6.832997994699175470e+05 2.143209266662597656e+01 7.082828521728515625e+00 1.567782783508300781e+01
7.966690765252683777e+05 2.361179924011230469e+01 8.476879119873046875e+00 1.815615463256835938e+01
9.288479492954472080e+05 2.438579368591308594e+01 8.782664299011230469e+00 1.979456901550292969e+01
1.082957200589915505e+06 2.657629776000976562e+01 1.158250808715820312e+01 2.177025413513183594e+01
1.262635396029177587e+06 3.024691963195800781e+01 1.130809211730957031e+01 2.348301696777343750e+01
1.472124791669819038e+06 3.202322769165039062e+01 1.390779495239257812e+01 2.329324150085449219e+01
1.716371494941702578e+06 3.466476058959960938e+01 1.399588108062744141e+01 2.429673957824707031e+01
2.001142243727086578e+06 3.947778701782226562e+01 1.694557762145996094e+01 2.805379676818847656e+01
2.333160560770732351e+06 4.162312316894531250e+01 1.757558250427246094e+01 2.745578765869140625e+01
2.720265498067409731e+06 4.381628036499023438e+01 1.759327697753906250e+01 2.840132141113281250e+01
3.171596719229418784e+06 4.817842483520507812e+01 1.904569244384765625e+01 2.809040260314941406e+01
3.697810289684285410e+06 5.689032745361328125e+01 1.811244201660156250e+01 3.283317565917968750e+01
4.311330269573875703e+06 6.693590545654296875e+01 2.245684623718261719e+01 3.492337799072265625e+01
5.026642049538709223e+06 1.094368057250976562e+02 2.655558586120605469e+01 3.441006088256835938e+01
5.860634355133283883e+06 7.101615600585937500e+02 2.799107170104980469e+01 3.490122222900390625e+01
6.832997994699168950e+06 8.130795288085937500e+02 2.792296409606933594e+01 3.282583618164062500e+01
7.966690765252675861e+06 1.109330749511718750e+02 2.523662757873535156e+01 3.536796951293945312e+01
9.288479492954473943e+06 7.624799346923828125e+01 2.754234886169433594e+01 3.559637832641601562e+01
