# Enu [GeV] / effarea NuE [m^2] / effarea NuMu [m^2] / effarea NuTau [m^2]
1.082957200589916056e+02 0.000000000000000000e+00 0.000000000000000000e+00 0.000000000000000000e+00
1.262635396029178878e+02 0.000000000000000000e+00 0.000000000000000000e+00 0.000000000000000000e+00
1.472124791669820070e+02 0.000000000000000000e+00 0.000000000000000000e+00 0.000000000000000000e+00
1.716371494941702451e+02 0.000000000000000000e+00 0.000000000000000000e+00 0.000000000000000000e+00
2.001142243727087475e+02 0.000000000000000000e+00 0.000000000000000000e+00 0.000000000000000000e+00
2.333160560770731990e+02 0.000000000000000000e+00 0.000000000000000000e+00 0.000000000000000000e+00
2.720265498067408316e+02 0.000000000000000000e+00 0.000000000000000000e+00 0.000000000000000000e+00
3.171596719229419250e+02 0.000000000000000000e+00 0.000000000000000000e+00 0.000000000000000000e+00
3.697810289684287000e+02 1.883109348455036525e-06 0.000000000000000000e+00 0.000000000000000000e+00
4.311330269573875285e+02 6.903579560457728803e-06 0.000000000000000000e+00 4.244760930305346847e-06
5.026642049538707511e+02 2.068728463200386614e-05 0.000000000000000000e+00 0.000000000000000000e+00
5.860634355133283862e+02 6.561405461980029941e-05 1.423477442585863173e-05 0.000000000000000000e+00
6.832997994699171613e+02 1.848715473897755146e-04 0.000000000000000000e+00 6.261370435822755098e-05
7.966690765252678830e+02 2.377796045038849115e-04 1.302696182392537594e-05 5.687011071131564677e-05
9.288479492954472789e+02 8.481682161800563335e-04 6.957221194170415401e-05 1.497284683864563704e-04
1.082957200589915601e+03 1.431817305274307728e-03 1.995859056478366256e-04 5.075374501757323742e-04
1.262635396029178310e+03 2.989453030750155449e-03 3.212747396901249886e-04 8.405255503021180630e-04
1.472124791669819842e+03 5.246740765869617462e-03 3.645068791229277849e-04 1.769287278875708580e-03
1.716371494941702394e+03 8.824288845062255859e-03 6.999840843491256237e-04 3.059121780097484589e-03
2.001142243727086679e+03 1.616846211254596710e-02 1.507736509665846825e-03 6.805337965488433838e-03
2.333160560770731081e+03 2.521115913987159729e-02 3.071218263357877731e-03 1.117557287216186523e-02
2.720265498067408771e+03 3.724831715226173401e-02 4.715661052614450455e-03 1.739215478301048279e-02
3.171596719229419250e+03 5.950519815087318420e-02 7.760653737932443619e-03 2.768122404813766479e-02
3.697810289684287000e+03 8.929369598627090454e-02 1.095293369144201279e-02 4.469515755772590637e-02
4.311330269573877558e+03 1.400271356105804443e-01 1.579081825911998749e-02 6.907752156257629395e-02
5.026642049538710125e+03 2.036878615617752075e-01 2.536249719560146332e-02 1.085019931197166443e-01
5.860634355133283862e+03 2.886440455913543701e-01 3.786943107843399048e-02 1.525943130254745483e-01
6.832997994699171613e+03 3.855104744434356689e-01 5.800504982471466064e-02 2.102891802787780762e-01
7.966690765252680649e+03 5.148784518241882324e-01 7.758624851703643799e-02 2.921216189861297607e-01
9.288479492954473244e+03 6.647427082061767578e-01 1.027338579297065735e-01 4.164347946643829346e-01
1.082957200589915556e+04 8.232741355895996094e-01 1.466197222471237183e-01 5.571052432060241699e-01
1.262635396029177718e+04 9.987592101097106934e-01 1.809600293636322021e-01 6.916405558586120605e-01
1.472124791669819024e+04 1.227788209915161133e+00 2.322580516338348389e-01 9.166647791862487793e-01
1.716371494941702258e+04 1.463596463203430176e+00 3.104044497013092041e-01 1.079853296279907227e+00
2.001142243727088498e+04 1.695366859436035156e+00 3.947294354438781738e-01 1.301192760467529297e+00
2.333160560770734446e+04 1.962412357330322266e+00 4.645671844482421875e-01 1.519878864288330078e+00
2.720265498067409862e+04 2.229982614517211914e+00 5.657130479812622070e-01 1.821790814399719238e+00
3.171596719229418886e+04 2.563019990921020508e+00 7.069938182830810547e-01 2.109451293945312500e+00
3.697810289684284362e+04 2.866218805313110352e+00 7.702957987785339355e-01 2.388478755950927734e+00
4.311330269573870464e+04 3.298374414443969727e+00 1.008098244667053223e+00 2.569006681442260742e+00
5.026642049538705032e+04 3.700372219085693359e+00 1.115185618400573730e+00 3.043546676635742188e+00
5.860634355133283680e+04 4.280333042144775391e+00 1.246072888374328613e+00 3.599277257919311523e+00
6.832997994699174888e+04 4.829069137573242188e+00 1.467978835105895996e+00 4.024629116058349609e+00
7.966690765252683195e+04 5.660123348236083984e+00 1.748205900192260742e+00 4.556055068969726562e+00
9.288479492954473244e+04 6.191787242889404297e+00 1.902477979660034180e+00 5.104412078857421875e+00
1.082957200589915446e+05 6.933824062347412109e+00 2.143459796905517578e+00 5.945838451385498047e+00
1.262635396029177646e+05 7.871194362640380859e+00 2.458192825317382812e+00 6.639893054962158203e+00
1.472124791669819097e+05 8.399553298950195312e+00 2.775829792022705078e+00 7.354606151580810547e+00
1.716371494941702404e+05 9.398959159851074219e+00 2.946778774261474609e+00 7.592454910278320312e+00
2.001142243727088789e+05 1.069601631164550781e+01 2.971225738525390625e+00 8.648279190063476562e+00
2.333160560770734446e+05 1.148703575134277344e+01 3.658618450164794922e+00 9.113229751586914062e+00
2.720265498067409499e+05 1.210383892059326172e+01 4.096290588378906250e+00 1.029931545257568359e+01
3.171596719229419250e+05 1.342411422729492188e+01 4.276290893554687500e+00 1.103757572174072266e+01
3.697810289684284944e+05 1.464692687988281250e+01 4.681939125061035156e+00 1.166219139099121094e+01
4.311330269573871046e+05 1.614683723449707031e+01 5.223913192749023438e+00 1.247512340545654297e+01
5.026642049538705032e+05 1.817086219787597656e+01 5.684230804443359375e+00 1.341457462310791016e+01
5.860634355133282952e+05 1.987354469299316406e+01 6.129762649536132812e+00 1.530007553100585938e+01
6.832997994699175470e+05 2.068466377258300781e+01 7.330269336700439453e+00 1.626173591613769531e+01
7.966690765252683777e+05 2.217165374755859375e+01 8.735685348510742188e+00 1.748048591613769531e+01
9.288479492954472080e+05 2.430973052978515625e+01 9.026381492614746094e+00 2.010096549987792969e+01
1.082957200589915505e+06 2.633025360107421875e+01 9.769407272338867188e+00 2.083896636962890625e+01
1.262635396029177587e+06 3.071911621093750000e+01 1.151853847503662109e+01 2.245233917236328125e+01
1.472124791669819038e+06 3.226239395141601562e+01 1.193725013732910156e+01 2.397439384460449219e+01
1.716371494941702578e+06 3.572177886962890625e+01 1.350616836547851562e+01 2.556371116638183594e+01
2.001142243727086578e+06 3.731610870361328125e+01 1.472999668121337891e+01 2.737365341186523438e+01
2.333160560770732351e+06 4.116768646240234375e+01 1.457203769683837891e+01 3.176885223388671875e+01
2.720265498067409731e+06 4.481237792968750000e+01 1.543144416809082031e+01 2.685243606567382812e+01
3.171596719229418784e+06 5.193983459472656250e+01 1.867173576354980469e+01 3.147149085998535156e+01
3.697810289684285410e+06 5.756503295898437500e+01 1.885949707031250000e+01 3.303654861450195312e+01
4.311330269573875703e+06 6.787738800048828125e+01 2.149378013610839844e+01 3.631048202514648438e+01
5.026642049538709223e+06 1.012847976684570312e+02 2.438808822631835938e+01 4.073768234252929688e+01
5.860634355133283883e+06 7.245342407226562500e+02 2.927870750427246094e+01 3.941716766357421875e+01
6.832997994699168950e+06 7.547514038085937500e+02 2.945921325683593750e+01 3.933729171752929688e+01
7.966690765252675861e+06 1.027103424072265625e+02 2.741479682922363281e+01 3.819525146484375000e+01
9.288479492954473943e+06 8.112921905517578125e+01 3.107059288024902344e+01 3.372216033935546875e+01
