# Fang et al., newborn pulsars (source), Phys. Rev. D 90, 103005 (2014)
# Energy [GeV], E**2 Flux [GeV cm^-2] (nue anue numu anumu nutau anutau)
1.01625e+03, 6.50808e-12, 6.50808e-12, 7.84027e-12, 7.84027e-12, 7.46900e-12, 7.46900e-12
1.04954e+03, 6.64003e-12, 6.64003e-12, 7.99923e-12, 7.99923e-12, 7.62043e-12, 7.62043e-12
1.08393e+03, 6.77439e-12, 6.77439e-12, 8.16110e-12, 8.16110e-12, 7.77464e-12, 7.77464e-12
1.11944e+03, 6.91119e-12, 6.91119e-12, 8.32589e-12, 8.32589e-12, 7.93163e-12, 7.93163e-12
1.15611e+03, 7.05042e-12, 7.05042e-12, 8.49362e-12, 8.49362e-12, 8.09142e-12, 8.09142e-12
1.19399e+03, 7.19210e-12, 7.19210e-12, 8.66431e-12, 8.66431e-12, 8.25402e-12, 8.25402e-12
1.23310e+03, 7.33625e-12, 7.33625e-12, 8.83797e-12, 8.83797e-12, 8.41946e-12, 8.41946e-12
1.27350e+03, 7.48290e-12, 7.48290e-12, 9.01463e-12, 9.01463e-12, 8.58776e-12, 8.58776e-12
1.31522e+03, 7.63206e-12, 7.63206e-12, 9.19433e-12, 9.19433e-12, 8.75894e-12, 8.75894e-12
1.35831e+03, 7.78378e-12, 7.78378e-12, 9.37710e-12, 9.37710e-12, 8.93306e-12, 8.93306e-12
1.40281e+03, 7.93809e-12, 7.93809e-12, 9.56300e-12, 9.56300e-12, 9.11016e-12, 9.11016e-12
1.44877e+03, 8.09505e-12, 8.09505e-12, 9.75209e-12, 9.75209e-12, 9.29029e-12, 9.29029e-12
1.49624e+03, 8.25472e-12, 8.25472e-12, 9.94445e-12, 9.94445e-12, 9.47354e-12, 9.47354e-12
1.54525e+03, 8.41719e-12, 8.41719e-12, 1.01402e-11, 1.01402e-11, 9.65999e-12, 9.65999e-12
1.59588e+03, 8.58254e-12, 8.58254e-12, 1.03394e-11, 1.03394e-11, 9.84976e-12, 9.84976e-12
1.64816e+03, 8.75090e-12, 8.75090e-12, 1.05422e-11, 1.05422e-11, 1.00430e-11, 1.00430e-11
1.70216e+03, 8.92241e-12, 8.92241e-12, 1.07488e-11, 1.07488e-11, 1.02398e-11, 1.02398e-11
1.75792e+03, 9.09724e-12, 9.09724e-12, 1.09594e-11, 1.09594e-11, 1.04405e-11, 1.04405e-11
1.81552e+03, 9.27558e-12, 9.27558e-12, 1.11743e-11, 1.11743e-11, 1.06451e-11, 1.06451e-11
1.87499e+03, 9.45755e-12, 9.45755e-12, 1.13935e-11, 1.13935e-11, 1.08540e-11, 1.08540e-11
1.93642e+03, 9.64319e-12, 9.64319e-12, 1.16171e-11, 1.16171e-11, 1.10670e-11, 1.10670e-11
1.99986e+03, 9.83255e-12, 9.83255e-12, 1.18452e-11, 1.18452e-11, 1.12843e-11, 1.12843e-11
2.06538e+03, 1.00257e-11, 1.00257e-11, 1.20779e-11, 1.20779e-11, 1.15060e-11, 1.15060e-11
2.13304e+03, 1.02226e-11, 1.02226e-11, 1.23152e-11, 1.23152e-11, 1.17320e-11, 1.17320e-11
2.20293e+03, 1.04235e-11, 1.04235e-11, 1.25571e-11, 1.25571e-11, 1.19625e-11, 1.19625e-11
2.27510e+03, 1.06283e-11, 1.06283e-11, 1.28038e-11, 1.28038e-11, 1.21975e-11, 1.21975e-11
2.34963e+03, 1.08371e-11, 1.08371e-11, 1.30555e-11, 1.30555e-11, 1.24372e-11, 1.24372e-11
2.42661e+03, 1.10502e-11, 1.10502e-11, 1.33122e-11, 1.33122e-11, 1.26818e-11, 1.26818e-11
2.50611e+03, 1.12677e-11, 1.12677e-11, 1.35741e-11, 1.35741e-11, 1.29314e-11, 1.29314e-11
2.58821e+03, 1.14897e-11, 1.14897e-11, 1.38416e-11, 1.38416e-11, 1.31862e-11, 1.31862e-11
2.67301e+03, 1.17165e-11, 1.17165e-11, 1.41149e-11, 1.41149e-11, 1.34465e-11, 1.34465e-11
2.76058e+03, 1.19484e-11, 1.19484e-11, 1.43942e-11, 1.43942e-11, 1.37126e-11, 1.37126e-11
2.85102e+03, 1.21857e-11, 1.21857e-11, 1.46800e-11, 1.46800e-11, 1.39849e-11, 1.39849e-11
2.94442e+03, 1.24286e-11, 1.24286e-11, 1.49727e-11, 1.49727e-11, 1.42636e-11, 1.42636e-11
3.04089e+03, 1.26773e-11, 1.26773e-11, 1.52723e-11, 1.52723e-11, 1.45491e-11, 1.45491e-11
3.14051e+03, 1.29321e-11, 1.29321e-11, 1.55793e-11, 1.55793e-11, 1.48416e-11, 1.48416e-11
3.24340e+03, 1.31933e-11, 1.31933e-11, 1.58940e-11, 1.58940e-11, 1.51413e-11, 1.51413e-11
3.34965e+03, 1.34611e-11, 1.34611e-11, 1.62166e-11, 1.62166e-11, 1.54487e-11, 1.54487e-11
3.45939e+03, 1.37359e-11, 1.37359e-11, 1.65476e-11, 1.65476e-11, 1.57640e-11, 1.57640e-11
3.57273e+03, 1.40179e-11, 1.40179e-11, 1.68873e-11, 1.68873e-11, 1.60877e-11, 1.60877e-11
3.68978e+03, 1.43076e-11, 1.43076e-11, 1.72363e-11, 1.72363e-11, 1.64201e-11, 1.64201e-11
3.81066e+03, 1.46052e-11, 1.46052e-11, 1.75948e-11, 1.75948e-11, 1.67617e-11, 1.67617e-11
3.93550e+03, 1.49109e-11, 1.49109e-11, 1.79632e-11, 1.79632e-11, 1.71125e-11, 1.71125e-11
4.06443e+03, 1.52251e-11, 1.52251e-11, 1.83416e-11, 1.83416e-11, 1.74731e-11, 1.74731e-11
4.19759e+03, 1.55479e-11, 1.55479e-11, 1.87306e-11, 1.87306e-11, 1.78436e-11, 1.78436e-11
4.33511e+03, 1.58798e-11, 1.58798e-11, 1.91304e-11, 1.91304e-11, 1.82245e-11, 1.82245e-11
4.47713e+03, 1.62210e-11, 1.62210e-11, 1.95414e-11, 1.95414e-11, 1.86160e-11, 1.86160e-11
4.62381e+03, 1.65718e-11, 1.65718e-11, 1.99640e-11, 1.99640e-11, 1.90186e-11, 1.90186e-11
4.77529e+03, 1.69320e-11, 1.69320e-11, 2.03980e-11, 2.03980e-11, 1.94321e-11, 1.94321e-11
4.93174e+03, 1.73016e-11, 1.73016e-11, 2.08432e-11, 2.08432e-11, 1.98562e-11, 1.98562e-11
5.09331e+03, 1.76800e-11, 1.76800e-11, 2.12991e-11, 2.12991e-11, 2.02905e-11, 2.02905e-11
5.26017e+03, 1.80670e-11, 1.80670e-11, 2.17653e-11, 2.17653e-11, 2.07346e-11, 2.07346e-11
5.43250e+03, 1.84619e-11, 1.84619e-11, 2.22411e-11, 2.22411e-11, 2.11879e-11, 2.11879e-11
5.61048e+03, 1.88642e-11, 1.88642e-11, 2.27257e-11, 2.27257e-11, 2.16495e-11, 2.16495e-11
5.79429e+03, 1.92731e-11, 1.92731e-11, 2.32183e-11, 2.32183e-11, 2.21188e-11, 2.21188e-11
5.98412e+03, 1.96884e-11, 1.96884e-11, 2.37185e-11, 2.37185e-11, 2.25954e-11, 2.25954e-11
6.18016e+03, 2.01099e-11, 2.01099e-11, 2.42264e-11, 2.42264e-11, 2.30792e-11, 2.30792e-11
6.38263e+03, 2.05377e-11, 2.05377e-11, 2.47417e-11, 2.47417e-11, 2.35701e-11, 2.35701e-11
6.59174e+03, 2.09716e-11, 2.09716e-11, 2.52644e-11, 2.52644e-11, 2.40681e-11, 2.40681e-11
6.80769e+03, 2.14115e-11, 2.14115e-11, 2.57944e-11, 2.57944e-11, 2.45729e-11, 2.45729e-11
7.03072e+03, 2.18574e-11, 2.18574e-11, 2.63315e-11, 2.63315e-11, 2.50846e-11, 2.50846e-11
7.26106e+03, 2.23090e-11, 2.23090e-11, 2.68757e-11, 2.68757e-11, 2.56030e-11, 2.56030e-11
7.49894e+03, 2.27665e-11, 2.27665e-11, 2.74268e-11, 2.74268e-11, 2.61280e-11, 2.61280e-11
7.74462e+03, 2.32297e-11, 2.32297e-11, 2.79848e-11, 2.79848e-11, 2.66596e-11, 2.66596e-11
7.99834e+03, 2.36987e-11, 2.36987e-11, 2.85497e-11, 2.85497e-11, 2.71978e-11, 2.71978e-11
8.26038e+03, 2.41733e-11, 2.41733e-11, 2.91215e-11, 2.91215e-11, 2.77425e-11, 2.77425e-11
8.53100e+03, 2.46537e-11, 2.46537e-11, 2.97003e-11, 2.97003e-11, 2.82939e-11, 2.82939e-11
8.81049e+03, 2.51400e-11, 2.51400e-11, 3.02861e-11, 3.02861e-11, 2.88519e-11, 2.88519e-11
9.09913e+03, 2.56322e-11, 2.56322e-11, 3.08791e-11, 3.08791e-11, 2.94169e-11, 2.94169e-11
9.39723e+03, 2.61305e-11, 2.61305e-11, 3.14794e-11, 3.14794e-11, 2.99887e-11, 2.99887e-11
9.70510e+03, 2.66348e-11, 2.66348e-11, 3.20869e-11, 3.20869e-11, 3.05674e-11, 3.05674e-11
1.00231e+04, 2.71451e-11, 2.71451e-11, 3.27017e-11, 3.27017e-11, 3.11531e-11, 3.11531e-11
1.03514e+04, 2.76616e-11, 2.76616e-11, 3.33239e-11, 3.33239e-11, 3.17459e-11, 3.17459e-11
1.06905e+04, 2.81843e-11, 2.81843e-11, 3.39536e-11, 3.39536e-11, 3.23457e-11, 3.23457e-11
1.10408e+04, 2.87134e-11, 2.87134e-11, 3.45910e-11, 3.45910e-11, 3.29530e-11, 3.29530e-11
1.14025e+04, 2.92493e-11, 2.92493e-11, 3.52365e-11, 3.52365e-11, 3.35680e-11, 3.35680e-11
1.17761e+04, 2.97921e-11, 2.97921e-11, 3.58905e-11, 3.58905e-11, 3.41910e-11, 3.41910e-11
1.21619e+04, 3.03423e-11, 3.03423e-11, 3.65534e-11, 3.65534e-11, 3.48224e-11, 3.48224e-11
1.25603e+04, 3.09004e-11, 3.09004e-11, 3.72257e-11, 3.72257e-11, 3.54629e-11, 3.54629e-11
1.29718e+04, 3.14669e-11, 3.14669e-11, 3.79081e-11, 3.79081e-11, 3.61131e-11, 3.61131e-11
1.33968e+04, 3.20427e-11, 3.20427e-11, 3.86017e-11, 3.86017e-11, 3.67738e-11, 3.67738e-11
1.38357e+04, 3.26285e-11, 3.26285e-11, 3.93075e-11, 3.93075e-11, 3.74461e-11, 3.74461e-11
1.42889e+04, 3.32255e-11, 3.32255e-11, 4.00267e-11, 4.00267e-11, 3.81313e-11, 3.81313e-11
1.47571e+04, 3.38345e-11, 3.38345e-11, 4.07604e-11, 4.07604e-11, 3.88302e-11, 3.88302e-11
1.52405e+04, 3.44552e-11, 3.44552e-11, 4.15081e-11, 4.15081e-11, 3.95425e-11, 3.95425e-11
1.57398e+04, 3.50873e-11, 3.50873e-11, 4.22696e-11, 4.22696e-11, 4.02680e-11, 4.02680e-11
1.62555e+04, 3.57305e-11, 3.57305e-11, 4.30444e-11, 4.30444e-11, 4.10061e-11, 4.10061e-11
1.67880e+04, 3.63842e-11, 3.63842e-11, 4.38320e-11, 4.38320e-11, 4.17564e-11, 4.17564e-11
1.73380e+04, 3.70481e-11, 3.70481e-11, 4.46317e-11, 4.46317e-11, 4.25182e-11, 4.25182e-11
1.79061e+04, 3.77213e-11, 3.77213e-11, 4.54428e-11, 4.54428e-11, 4.32909e-11, 4.32909e-11
1.84927e+04, 3.84036e-11, 3.84036e-11, 4.62648e-11, 4.62648e-11, 4.40740e-11, 4.40740e-11
1.90985e+04, 3.90951e-11, 3.90951e-11, 4.70977e-11, 4.70977e-11, 4.48675e-11, 4.48675e-11
1.97242e+04, 3.97959e-11, 3.97959e-11, 4.79420e-11, 4.79420e-11, 4.56718e-11, 4.56718e-11
2.03704e+04, 4.05066e-11, 4.05066e-11, 4.87982e-11, 4.87982e-11, 4.64874e-11, 4.64874e-11
2.10378e+04, 4.12276e-11, 4.12276e-11, 4.96668e-11, 4.96668e-11, 4.73149e-11, 4.73149e-11
2.17270e+04, 4.19596e-11, 4.19596e-11, 5.05486e-11, 5.05486e-11, 4.81549e-11, 4.81549e-11
2.24388e+04, 4.27033e-11, 4.27033e-11, 5.14446e-11, 5.14446e-11, 4.90085e-11, 4.90085e-11
2.31739e+04, 4.34595e-11, 4.34595e-11, 5.23556e-11, 5.23556e-11, 4.98764e-11, 4.98764e-11
2.39332e+04, 4.42284e-11, 4.42284e-11, 5.32818e-11, 5.32818e-11, 5.07587e-11, 5.07587e-11
2.47172e+04, 4.50096e-11, 4.50096e-11, 5.42230e-11, 5.42230e-11, 5.16553e-11, 5.16553e-11
2.55270e+04, 4.58032e-11, 4.58032e-11, 5.51790e-11, 5.51790e-11, 5.25661e-11, 5.25661e-11
2.63633e+04, 4.66089e-11, 4.66089e-11, 5.61497e-11, 5.61497e-11, 5.34908e-11, 5.34908e-11
2.72270e+04, 4.74268e-11, 4.74268e-11, 5.71349e-11, 5.71349e-11, 5.44294e-11, 5.44294e-11
2.81190e+04, 4.82565e-11, 4.82565e-11, 5.81345e-11, 5.81345e-11, 5.53816e-11, 5.53816e-11
2.90402e+04, 4.90981e-11, 4.90981e-11, 5.91484e-11, 5.91484e-11, 5.63475e-11, 5.63475e-11
2.99916e+04, 4.99520e-11, 4.99520e-11, 6.01770e-11, 6.01770e-11, 5.73274e-11, 5.73274e-11
3.09742e+04, 5.08186e-11, 5.08186e-11, 6.12211e-11, 6.12211e-11, 5.83220e-11, 5.83220e-11
3.19890e+04, 5.16988e-11, 5.16988e-11, 6.22815e-11, 6.22815e-11, 5.93322e-11, 5.93322e-11
3.30370e+04, 5.25935e-11, 5.25935e-11, 6.33593e-11, 6.33593e-11, 6.03590e-11, 6.03590e-11
3.41193e+04, 5.35039e-11, 5.35039e-11, 6.44560e-11, 6.44560e-11, 6.14038e-11, 6.14038e-11
3.52371e+04, 5.44312e-11, 5.44312e-11, 6.55732e-11, 6.55732e-11, 6.24681e-11, 6.24681e-11
3.63915e+04, 5.53771e-11, 5.53771e-11, 6.67127e-11, 6.67127e-11, 6.35536e-11, 6.35536e-11
3.75837e+04, 5.63416e-11, 5.63416e-11, 6.78747e-11, 6.78747e-11, 6.46605e-11, 6.46605e-11
3.88150e+04, 5.73243e-11, 5.73243e-11, 6.90584e-11, 6.90584e-11, 6.57882e-11, 6.57882e-11
4.00867e+04, 5.83242e-11, 5.83242e-11, 7.02630e-11, 7.02630e-11, 6.69358e-11, 6.69358e-11
4.14000e+04, 5.93406e-11, 5.93406e-11, 7.14875e-11, 7.14875e-11, 6.81023e-11, 6.81023e-11
4.27563e+04, 6.03723e-11, 6.03723e-11, 7.27304e-11, 7.27304e-11, 6.92863e-11, 6.92863e-11
4.41570e+04, 6.14181e-11, 6.14181e-11, 7.39903e-11, 7.39903e-11, 7.04866e-11, 7.04866e-11
4.56037e+04, 6.24767e-11, 6.24767e-11, 7.52655e-11, 7.52655e-11, 7.17014e-11, 7.17014e-11
4.70977e+04, 6.35476e-11, 6.35476e-11, 7.65557e-11, 7.65557e-11, 7.29305e-11, 7.29305e-11
4.86407e+04, 6.46317e-11, 6.46317e-11, 7.78617e-11, 7.78617e-11, 7.41747e-11, 7.41747e-11
5.02343e+04, 6.57299e-11, 6.57299e-11, 7.91847e-11, 7.91847e-11, 7.54350e-11, 7.54350e-11
5.18800e+04, 6.68434e-11, 6.68434e-11, 8.05261e-11, 8.05261e-11, 7.67129e-11, 7.67129e-11
5.35797e+04, 6.79738e-11, 6.79738e-11, 8.18879e-11, 8.18879e-11, 7.80102e-11, 7.80102e-11
5.53350e+04, 6.91229e-11, 6.91229e-11, 8.32722e-11, 8.32722e-11, 7.93290e-11, 7.93290e-11
5.71479e+04, 7.02930e-11, 7.02930e-11, 8.46819e-11, 8.46819e-11, 8.06718e-11, 8.06718e-11
5.90201e+04, 7.14858e-11, 7.14858e-11, 8.61188e-11, 8.61188e-11, 8.20408e-11, 8.20408e-11
6.09537e+04, 7.27021e-11, 7.27021e-11, 8.75841e-11, 8.75841e-11, 8.34367e-11, 8.34367e-11
6.29506e+04, 7.39429e-11, 7.39429e-11, 8.90789e-11, 8.90789e-11, 8.48607e-11, 8.48607e-11
6.50130e+04, 7.52093e-11, 7.52093e-11, 9.06045e-11, 9.06045e-11, 8.63141e-11, 8.63141e-11
6.71429e+04, 7.65026e-11, 7.65026e-11, 9.21626e-11, 9.21626e-11, 8.77983e-11, 8.77983e-11
6.93426e+04, 7.78244e-11, 7.78244e-11, 9.37549e-11, 9.37549e-11, 8.93152e-11, 8.93152e-11
7.16143e+04, 7.91763e-11, 7.91763e-11, 9.53835e-11, 9.53835e-11, 9.08668e-11, 9.08668e-11
7.39605e+04, 8.05593e-11, 8.05593e-11, 9.70497e-11, 9.70497e-11, 9.24540e-11, 9.24540e-11
7.63836e+04, 8.19728e-11, 8.19728e-11, 9.87524e-11, 9.87524e-11, 9.40761e-11, 9.40761e-11
7.88860e+04, 8.34155e-11, 8.34155e-11, 1.00490e-10, 1.00490e-10, 9.57319e-11, 9.57319e-11
8.14704e+04, 8.48861e-11, 8.48861e-11, 1.02262e-10, 1.02262e-10, 9.74196e-11, 9.74196e-11
8.41395e+04, 8.63829e-11, 8.63829e-11, 1.04065e-10, 1.04065e-10, 9.91374e-11, 9.91374e-11
8.68960e+04, 8.79037e-11, 8.79037e-11, 1.05897e-10, 1.05897e-10, 1.00883e-10, 1.00883e-10
8.97429e+04, 8.94461e-11, 8.94461e-11, 1.07756e-10, 1.07756e-10, 1.02653e-10, 1.02653e-10
9.26830e+04, 9.10082e-11, 9.10082e-11, 1.09637e-10, 1.09637e-10, 1.04446e-10, 1.04446e-10
9.57194e+04, 9.25899e-11, 9.25899e-11, 1.11543e-10, 1.11543e-10, 1.06261e-10, 1.06261e-10
9.88553e+04, 9.41917e-11, 9.41917e-11, 1.13473e-10, 1.13473e-10, 1.08099e-10, 1.08099e-10
1.02094e+05, 9.58142e-11, 9.58142e-11, 1.15427e-10, 1.15427e-10, 1.09961e-10, 1.09961e-10
1.05439e+05, 9.74582e-11, 9.74582e-11, 1.17408e-10, 1.17408e-10, 1.11848e-10, 1.11848e-10
1.08893e+05, 9.91250e-11, 9.91250e-11, 1.19416e-10, 1.19416e-10, 1.13761e-10, 1.13761e-10
1.12460e+05, 1.00816e-10, 1.00816e-10, 1.21453e-10, 1.21453e-10, 1.15701e-10, 1.15701e-10
1.16145e+05, 1.02532e-10, 1.02532e-10, 1.23520e-10, 1.23520e-10, 1.17671e-10, 1.17671e-10
1.19950e+05, 1.04275e-10, 1.04275e-10, 1.25620e-10, 1.25620e-10, 1.19672e-10, 1.19672e-10
1.23880e+05, 1.06046e-10, 1.06046e-10, 1.27753e-10, 1.27753e-10, 1.21703e-10, 1.21703e-10
1.27938e+05, 1.07844e-10, 1.07844e-10, 1.29920e-10, 1.29920e-10, 1.23768e-10, 1.23768e-10
1.32130e+05, 1.09673e-10, 1.09673e-10, 1.32122e-10, 1.32122e-10, 1.25866e-10, 1.25866e-10
1.36458e+05, 1.11532e-10, 1.11532e-10, 1.34363e-10, 1.34363e-10, 1.28000e-10, 1.28000e-10
1.40929e+05, 1.13425e-10, 1.13425e-10, 1.36643e-10, 1.36643e-10, 1.30173e-10, 1.30173e-10
1.45546e+05, 1.15354e-10, 1.15354e-10, 1.38966e-10, 1.38966e-10, 1.32386e-10, 1.32386e-10
1.50314e+05, 1.17318e-10, 1.17318e-10, 1.41333e-10, 1.41333e-10, 1.34640e-10, 1.34640e-10
1.55239e+05, 1.19318e-10, 1.19318e-10, 1.43742e-10, 1.43742e-10, 1.36936e-10, 1.36936e-10
1.60325e+05, 1.21354e-10, 1.21354e-10, 1.46195e-10, 1.46195e-10, 1.39272e-10, 1.39272e-10
1.65577e+05, 1.23426e-10, 1.23426e-10, 1.48691e-10, 1.48691e-10, 1.41650e-10, 1.41650e-10
1.71002e+05, 1.25533e-10, 1.25533e-10, 1.51230e-10, 1.51230e-10, 1.44068e-10, 1.44068e-10
1.76604e+05, 1.27676e-10, 1.27676e-10, 1.53811e-10, 1.53811e-10, 1.46528e-10, 1.46528e-10
1.82390e+05, 1.29855e-10, 1.29855e-10, 1.56436e-10, 1.56436e-10, 1.49028e-10, 1.49028e-10
1.88365e+05, 1.32068e-10, 1.32068e-10, 1.59102e-10, 1.59102e-10, 1.51568e-10, 1.51568e-10
1.94536e+05, 1.34315e-10, 1.34315e-10, 1.61809e-10, 1.61809e-10, 1.54147e-10, 1.54147e-10
2.00909e+05, 1.36595e-10, 1.36595e-10, 1.64556e-10, 1.64556e-10, 1.56764e-10, 1.56764e-10
2.07491e+05, 1.38907e-10, 1.38907e-10, 1.67341e-10, 1.67341e-10, 1.59417e-10, 1.59417e-10
2.14289e+05, 1.41250e-10, 1.41250e-10, 1.70163e-10, 1.70163e-10, 1.62105e-10, 1.62105e-10
2.21309e+05, 1.43621e-10, 1.43621e-10, 1.73020e-10, 1.73020e-10, 1.64827e-10, 1.64827e-10
2.28560e+05, 1.46020e-10, 1.46020e-10, 1.75910e-10, 1.75910e-10, 1.67580e-10, 1.67580e-10
2.36048e+05, 1.48447e-10, 1.48447e-10, 1.78834e-10, 1.78834e-10, 1.70365e-10, 1.70365e-10
2.43781e+05, 1.50902e-10, 1.50902e-10, 1.81792e-10, 1.81792e-10, 1.73183e-10, 1.73183e-10
2.51768e+05, 1.53388e-10, 1.53388e-10, 1.84786e-10, 1.84786e-10, 1.76036e-10, 1.76036e-10
2.60016e+05, 1.55906e-10, 1.55906e-10, 1.87820e-10, 1.87820e-10, 1.78926e-10, 1.78926e-10
2.68534e+05, 1.58460e-10, 1.58460e-10, 1.90896e-10, 1.90896e-10, 1.81856e-10, 1.81856e-10
2.77332e+05, 1.61052e-10, 1.61052e-10, 1.94019e-10, 1.94019e-10, 1.84831e-10, 1.84831e-10
2.86418e+05, 1.63687e-10, 1.63687e-10, 1.97193e-10, 1.97193e-10, 1.87856e-10, 1.87856e-10
2.95801e+05, 1.66368e-10, 1.66368e-10, 2.00423e-10, 2.00423e-10, 1.90932e-10, 1.90932e-10
3.05492e+05, 1.69095e-10, 1.69095e-10, 2.03709e-10, 2.03709e-10, 1.94062e-10, 1.94062e-10
3.15500e+05, 1.71870e-10, 1.71870e-10, 2.07052e-10, 2.07052e-10, 1.97247e-10, 1.97247e-10
3.25837e+05, 1.74694e-10, 1.74694e-10, 2.10453e-10, 2.10453e-10, 2.00487e-10, 2.00487e-10
3.36512e+05, 1.77567e-10, 1.77567e-10, 2.13915e-10, 2.13915e-10, 2.03785e-10, 2.03785e-10
3.47536e+05, 1.80493e-10, 1.80493e-10, 2.17439e-10, 2.17439e-10, 2.07142e-10, 2.07142e-10
3.58922e+05, 1.83472e-10, 1.83472e-10, 2.21028e-10, 2.21028e-10, 2.10561e-10, 2.10561e-10
3.70681e+05, 1.86505e-10, 1.86505e-10, 2.24682e-10, 2.24682e-10, 2.14043e-10, 2.14043e-10
3.82825e+05, 1.89591e-10, 1.89591e-10, 2.28400e-10, 2.28400e-10, 2.17585e-10, 2.17585e-10
3.95367e+05, 1.92728e-10, 1.92728e-10, 2.32179e-10, 2.32179e-10, 2.21184e-10, 2.21184e-10
4.08319e+05, 1.95912e-10, 1.95912e-10, 2.36015e-10, 2.36015e-10, 2.24839e-10, 2.24839e-10
4.21697e+05, 1.99141e-10, 1.99141e-10, 2.39905e-10, 2.39905e-10, 2.28544e-10, 2.28544e-10
4.35512e+05, 2.02410e-10, 2.02410e-10, 2.43843e-10, 2.43843e-10, 2.32296e-10, 2.32296e-10
4.49780e+05, 2.05716e-10, 2.05716e-10, 2.47825e-10, 2.47825e-10, 2.36090e-10, 2.36090e-10
4.64515e+05, 2.09055e-10, 2.09055e-10, 2.51848e-10, 2.51848e-10, 2.39922e-10, 2.39922e-10
4.79733e+05, 2.12430e-10, 2.12430e-10, 2.55914e-10, 2.55914e-10, 2.43796e-10, 2.43796e-10
4.95450e+05, 2.15846e-10, 2.15846e-10, 2.60029e-10, 2.60029e-10, 2.47715e-10, 2.47715e-10
5.11682e+05, 2.19306e-10, 2.19306e-10, 2.64197e-10, 2.64197e-10, 2.51687e-10, 2.51687e-10
5.28445e+05, 2.22818e-10, 2.22818e-10, 2.68428e-10, 2.68428e-10, 2.55717e-10, 2.55717e-10
5.45758e+05, 2.26389e-10, 2.26389e-10, 2.72731e-10, 2.72731e-10, 2.59816e-10, 2.59816e-10
5.63638e+05, 2.30029e-10, 2.30029e-10, 2.77116e-10, 2.77116e-10, 2.63994e-10, 2.63994e-10
5.82103e+05, 2.33747e-10, 2.33747e-10, 2.81595e-10, 2.81595e-10, 2.68260e-10, 2.68260e-10
6.01174e+05, 2.37543e-10, 2.37543e-10, 2.86167e-10, 2.86167e-10, 2.72616e-10, 2.72616e-10
6.20869e+05, 2.41414e-10, 2.41414e-10, 2.90831e-10, 2.90831e-10, 2.77059e-10, 2.77059e-10
6.41210e+05, 2.45359e-10, 2.45359e-10, 2.95584e-10, 2.95584e-10, 2.81587e-10, 2.81587e-10
6.62217e+05, 2.49375e-10, 2.49375e-10, 3.00421e-10, 3.00421e-10, 2.86195e-10, 2.86195e-10
6.83912e+05, 2.53457e-10, 2.53457e-10, 3.05339e-10, 3.05339e-10, 2.90880e-10, 2.90880e-10
7.06318e+05, 2.57601e-10, 2.57601e-10, 3.10332e-10, 3.10332e-10, 2.95636e-10, 2.95636e-10
7.29458e+05, 2.61804e-10, 2.61804e-10, 3.15395e-10, 3.15395e-10, 3.00459e-10, 3.00459e-10
7.53356e+05, 2.66062e-10, 2.66062e-10, 3.20525e-10, 3.20525e-10, 3.05347e-10, 3.05347e-10
7.78037e+05, 2.70376e-10, 2.70376e-10, 3.25722e-10, 3.25722e-10, 3.10297e-10, 3.10297e-10
8.03526e+05, 2.74744e-10, 2.74744e-10, 3.30983e-10, 3.30983e-10, 3.15310e-10, 3.15310e-10
8.29851e+05, 2.79165e-10, 2.79165e-10, 3.36310e-10, 3.36310e-10, 3.20384e-10, 3.20384e-10
8.57038e+05, 2.83639e-10, 2.83639e-10, 3.41699e-10, 3.41699e-10, 3.25519e-10, 3.25519e-10
8.85116e+05, 2.88165e-10, 2.88165e-10, 3.47152e-10, 3.47152e-10, 3.30713e-10, 3.30713e-10
9.14113e+05, 2.92743e-10, 2.92743e-10, 3.52667e-10, 3.52667e-10, 3.35967e-10, 3.35967e-10
9.44061e+05, 2.97373e-10, 2.97373e-10, 3.58244e-10, 3.58244e-10, 3.41280e-10, 3.41280e-10
9.74990e+05, 3.02052e-10, 3.02052e-10, 3.63882e-10, 3.63882e-10, 3.46651e-10, 3.46651e-10
1.00693e+06, 3.06782e-10, 3.06782e-10, 3.69580e-10, 3.69580e-10, 3.52079e-10, 3.52079e-10
1.03992e+06, 3.11562e-10, 3.11562e-10, 3.75338e-10, 3.75338e-10, 3.57564e-10, 3.57564e-10
1.07399e+06, 3.16391e-10, 3.16391e-10, 3.81156e-10, 3.81156e-10, 3.63106e-10, 3.63106e-10
1.10917e+06, 3.21271e-10, 3.21271e-10, 3.87034e-10, 3.87034e-10, 3.68707e-10, 3.68707e-10
1.14551e+06, 3.26202e-10, 3.26202e-10, 3.92975e-10, 3.92975e-10, 3.74366e-10, 3.74366e-10
1.18304e+06, 3.31187e-10, 3.31187e-10, 3.98980e-10, 3.98980e-10, 3.80087e-10, 3.80087e-10
